acceleration;velocity;distance_traveled;turn_radius
80.0320775819693;348.00320775819694;34.80032077581969;3460.1780745712795
79.46465027569832;355.9496727857668;70.39528805439637;3620.0048444655554
78.87741456274604;363.8374142420414;106.7790294786005;3782.2189714952815
78.27080539941672;371.6644947819831;143.9454789567988;3946.6999051870494
77.64527785380994;379.4290225673641;181.8883812135352;4113.325233326436
77.00130632020827;387.1291531993849;220.60129653347371;4281.970893053509
76.3393836916643;394.7630915685513;260.0776056903288;4452.511384707441
75.66002049342167;402.3290936178935;300.31051505211815;4624.819987754163
74.96374397994501;409.82546801588796;341.29306185370694;4798.768978126904
74.25109719846097;417.25057773573405;383.0181196272804;4974.229846308682
73.52263802202461;424.6028415379365;425.478403781074;5151.073515488286
72.7789381552218;431.8807353534587;468.6664773164199;5329.170559126978
72.02058211569906;439.0827935650286;512.5747566729227;5508.391417281987
71.24816619477805;446.20761018450645;557.1955176913734;5688.606611044813
70.46229740045844;453.25383992455227;602.5209016838287;5869.68695446719
69.66359238614731;460.220199163167;648.5429216001454;6051.503763365289
68.8526763684665;467.1054668000137;695.2534682801468;6233.929060413106
68.03018203749055;473.90848500376273;742.644316780523;6416.835775958903
67.19674846274995;480.6281598500377;790.7071327655268;6600.097944023812
66.35301999830307;487.263461849868;839.4334789505136;6783.5908929690795
65.49964519013182;493.8134263688812;888.8148215874018;6967.191430347842
64.63727568905475;500.2771539377867;938.8425369811804;7150.7780214883405
63.76656517227481;506.6538104550142;989.5079180266819;7334.230961388156
62.88816827658949;512.9426272826731;1040.8021807549492;7517.432539532896
62.00273954619012;519.1429012372921;1092.7164708786784;7700.267197287794
61.110932397862676;525.2539944770783;1145.241870326386;7882.6216775464745
60.2133981062795;531.2753342877063;1198.3694037551568;8064.385166357546
59.31078481193695;537.2064127689;1252.0900450320469;8245.449426286565
58.40373655415258;543.0467864243153;1306.3947236744784;8425.708921307883
57.492892331384304;548.7960756574538;1361.2743312402238;8605.060933057764
56.57888519097941;554.4539641765517;1416.719727657879;8783.40566831694
55.662341350297574;560.0201983115815;1472.7217474890372;8960.646357626943
54.74387935098732;565.4945862466802;1529.2712061137051;9136.689344980115
53.82410924802507;570.8769971714827;1586.3589058308535;9311.444168557973
52.9036318349543;576.1673603549781;1643.9756418663512;9484.823632526377
51.98303790658951;581.3656641456371;1702.112208280915;9656.743869928505
51.062907560276386;586.4719549016647;1760.7594037710815;9827.124396748008
50.143809536627344;591.4863358553274;1819.9080373566142;9995.888157244606
49.22630060048052;596.4089659153755;1879.5489339481517;10162.961560692785
48.310924962662206;601.2400584116417;1939.672939789316;10328.274509680981
47.39821374296879;605.9798797859386;2000.2709277679098;10491.76042015373
46.48868447462173;610.6287482334008;2061.33380259125;10653.35623340257
45.58284065029519;615.1870322984303;2122.852505821093;10813.002420232855
44.681171309664855;619.6551494293967;2184.8180207640326;10970.64297755337
43.784150668281704;624.0335644962249;2247.221377213655;11126.22541765326
42.89223778743784;628.3227882749687;2310.053656041152;11279.700750446606
42.00587628456039;632.5233759034247;2373.3059936314944;11431.023458979005
41.12549408354587;636.6359253117793;2436.9695861626724;11580.15146850244
40.25150320433286;640.6610756322126;2501.0356937258935;11727.046109434961
39.38429959090228;644.5995055913028;2565.495644285024;11871.672074530055
38.52426297679636;648.4519318889824;2630.340837473922;12013.997370587242
37.67175678715461;652.2191075676978;2695.562748230692;12153.99326504012
36.827128076184714;655.9018203753163;2761.1529302682234;12291.634227761535
35.99070749890968;659.5008911252073;2827.103019380744;12426.897868426931
35.16280931596784;663.0171720568042;2893.4047365864244;12559.764869777197
34.343731430184285;666.4515451998226;2960.0498911064064;12690.21891712089
33.53375545358221;669.8049207451808;3027.0303831809247;12818.246624413083
32.73314680346136;673.0782354255269;3094.3382067234775;12943.83745724403
31.942154826136534;676.2724509081406;3161.9654518142916;13066.983653065814
31.16101294690242;679.3885522028309;3229.9043070345747;13187.680138978818
-104.69070631651879;668.919481571179;3296.7962551916926;12784.379223584423
-101.489092594789;658.7705723117;3362.6733124228626;12399.390484110992
-98.43285050864293;648.9272872608357;3427.566041148946;12031.617832905918
-95.51327874068987;639.3759593867667;3491.503637087623;11680.04621262138
-92.72231923450325;630.1037274633163;3554.5140098339543;11343.734496090436
-90.05250083012149;621.0984773803042;3616.623857571985;11021.809102975207
-87.49688858966067;612.3487885213381;3677.858736424119;10713.458251530012
-85.04903816480218;603.8438847048578;3738.2431248946045;10417.926774155818
-82.70295463995075;595.5735892408627;3797.8004838186907;10134.511434321254
-80.45305535550281;587.5282837053124;3856.553312189222;9862.556690106003
-78.29413627663686;579.6988700776487;3914.523199196987;9601.45085626579
-76.22134152577691;572.076735925071;3971.7308727894942;9350.622622476669
-74.23013574259346;564.6537223508117;4028.1962450245755;9109.537890417929
-72.31627897511255;557.4220944533005;4083.9384544699055;8877.696896705835
-70.47580384005805;550.3745140692947;4138.975905876835;8654.631592486065
-68.70499472068514;543.5040145972262;4193.326307336558;8439.903253808625
-67.00036879668583;536.8039777175576;4247.006705108313;8233.100299811202
-65.35865872378675;530.268111845179;4300.033516292831;8033.836298281463
-63.77679680085876;523.8904321650931;4352.42255950934;7841.748140403658
-62.251900480100446;517.665242117083;4404.1890837210485;7656.494368461092
-60.7812590914651;511.5871162079365;4455.347795341842;7477.75364199865
-59.362321666256236;505.65088404131086;4505.912883745974;7305.223329478834
-57.99268575695613;499.8516154656152;4555.898045292535;7138.618213816722
-56.67008716108493;494.1846067495067;4605.316505967486;6977.669301376131
-55.39239046638896;488.6453677028678;4654.181042737772;6822.122725070597
-54.15758034308219;483.2296096685596;4702.504003704628;6671.738733155099
-52.96375351634583;477.933234316925;4750.297327136321;6526.290756132478
-51.80911135894315;472.7523231810307;4797.572559454424;6385.56454494462
-50.691953049730074;467.6831278760577;4844.34087224203;6249.357374283799
-49.61066924912372;462.72206095114535;4890.6130783371445;6117.477305453585
-48.563736247306515;457.8656873264147;4936.399647069786;5989.742503739718
-47.549710545158966;453.11071627189875;4981.710718696975;5865.9806057266605
-46.567223831687386;448.45399388873;5026.5561180858485;5746.028132421517
-45.614978325094334;443.8924960562206;5070.945367691471;5629.729944429194
-44.6917424476741;439.42332181145315;5114.887699872616;5516.938735766054
-43.79634680744042;435.0436871307091;5158.392068585687;5407.514563208066
-42.927680461845874;430.7509190845245;5201.4671604941395;5301.324408347503
-42.08468744115879;426.54245034040866;5244.121405528181;5198.241769782857
-41.26636351105331;422.41581398930333;5286.362986927111;5098.146283092735
-40.47175315576333;418.368638673727;5328.199850794484;5000.9233664487865
-39.69994676477247;414.39864399724974;5369.639715194208;4906.46388990741
-38.95007800747858;410.5036361965019;5410.690078813858;4814.663866587142
-38.221321381598216;406.68150405834206;5451.3582292196925;4725.424164090151
-37.512889922279435;402.9302150661141;5491.651250726304;4638.650234663571
-36.824033059981296;399.24781176011595;5531.576031902316;4554.251862721171
-36.1540346161687;395.63240829849906;5571.139272732165;4472.14292845915
-35.50221092677088;392.082187205822;5610.347491452748;4392.241186402893
-34.86790908416965;388.595396297405;5649.207031082488;4314.468057815349
-34.25050528922852;385.17034576848215;5687.724065659337;4238.748435983202
-33.64940330555233;381.80540543792694;5725.904606203129;4165.010503474851
-33.06403300878558;378.49900213704836;5763.754506416834;4093.1855605354667
-32.49384902432248;375.2496172346161;5801.279468140296;4023.207863849311
-31.938329447317937;372.0557842898843;5838.485046569284;3955.014474958883
-31.39697463935936;368.91608682594835;5875.376655251879;3888.545117684876
-30.86930609659171;365.82915621628916;5911.959570873508;3823.7420439406314
-30.354865384482377;362.7936696778409;5948.238937841292;3760.54990738041
-29.85321313477504;359.8083483643634;5984.2197726777285;3698.915644362602
-29.36392810051335;356.871955554312;6019.90696823316;3638.788361747396
-28.886606265320108;353.98329492778004;6055.3052977259385;3580.1192310836486
-28.42086000339724;351.1412089274403;6090.419418618682;3522.861388772122
-27.96631728696935;348.34457719874337;6125.253876338556;3466.9698418220364
-27.522620938129904;345.5923151049304;6159.81310784905;3412.4013788452994
-27.08942792226686;342.88337231270367;6194.10144508032;3359.114485958062
-26.666408680445187;340.21673144465916;6228.123118224787;3307.0692672824953
-26.25324649830838;337.59140679482834;6261.882258904269;3256.227369763179
-25.8496369092316;335.0064431039052;6295.38290321466;3206.5519120322883
-25.455287129616302;332.46091439094357;6328.628994653754;3158.007417076066
-25.069915524361466;329.9539228385074;6361.624386937604;3110.559748471992
-24.693251100680857;327.4845977284393;6394.372846710447;3064.176049981649
-24.325033028559613;325.0520944255834;6426.878056153006;3018.824688298811
-23.965010186258564;322.6555934069575;6459.143615493702;2974.475198765597
-23.612940729380703;320.29429933401946;6491.173045427104;2931.098233882013
-23.268591682112948;317.96744016580817;6522.969789443685;2888.665514445623
-22.9317385493473;315.67426631087346;6554.537216074772;2847.1497831688075
-22.60216494847036;313.4140498160264;6585.878621056375;2806.524760630934
-22.279662259688592;311.18608359005754;6616.99722941538;2766.7651034319506
-21.96402929382971;308.98968066067454;6647.896197481447;2727.8463644224466
-21.655071976627994;306.82417346301173;6678.578614827748;2689.7449548931518
-21.35260304856483;304.68891315815523;6709.047506143564;2652.438108614225
-21.056441779393715;302.58326898021585;6739.305833041585;2615.9038476215333
-20.766413696533867;300.5066276105625;6769.356495802642;2580.120949653522
-20.482350326567033;298.4583925779058;6799.202335060432;2545.0689171482095
-20.20408894911942;296.43798368299383;6828.846133428731;2510.7279477153975
-19.931472362454663;294.44483644674835;6858.290617073406;2477.078906004354
-19.664348660144736;292.4784015807339;6887.53845723148;2444.1032968920294
-19.402571018224005;290.5381444789115;6916.592271679371;2411.7832399213953
-19.14599749226739;288.62354472968474;6945.454626152339;2380.1014449236663
-18.894490823866786;286.73409564729803;6974.128035717069;2349.0411887621103
-18.647918256011263;284.8693038216969;7002.614966099239;2318.586293138808
-18.40615135690551;283.0286886860064;7030.91783496784;2288.721103409152
-18.16906585178826;281.2117821008276;7059.039013177922;2259.430468352095
-17.936541462337903;279.4181279545938;7086.980825973382;2230.6997208471357
-17.7084617532763;277.64728177926617;7114.745554151308;2202.5146594118632
-17.484713985804166;275.89881038068575;7142.335435189377;2174.861530556502
-17.265188977522183;274.17229148293353;7169.7526643376705;2147.7270119143623
-17.04978096851171;272.46731338608237;7196.999395676278;2121.0981961094176
-16.83838749326717;270.78347463675567;7224.077743139954;2094.9625753244145
-16.63090925818961;269.1203837109367;7250.989781511047;2069.308026534909
-16.427250024366785;267.47765870850003;7277.7375473818975;2044.1227973765947
-16.227316495380585;265.85492705896195;7304.323040087794;2019.3954926150282
-16.03101820989664;264.2518252379723;7330.748222611591;1995.1150611885673
-15.838267438804397;262.6679984940919;7357.015022461;1971.2707837969215
-15.648979086688534;261.103100585423;7383.125332519542;1947.8522610091866
-15.463070597424302;259.5567935256806;7409.08101187211;1924.8494018666509
-15.280461863700655;258.0287473393105;7434.883886606041;1902.2524129569636
-15.101075140285257;256.518639825282;7460.5357505885695;1880.051787937507
-14.92483496085556;255.02615632919643;7486.038366221489;1858.2382974869638
-14.75166805822906;253.55098952337352;7511.393465173826;1836.802979665196
-14.581503287834979;252.09283919459003;7536.602749093286;1815.737130662555
-14.414271554277448;250.6514120391623;7561.667890297202;1795.0322959207404
-14.249905740848245;249.22642146507746;7586.590532443709;1774.6802616082407
-14.088340641854373;247.81758740089202;7611.372291183799;1754.6730464342502
-13.929512897632652;246.42463611112876;7636.014754794912;1735.0028937857778
-13.773360932129963;245.04730001791577;7660.519484796703;1715.6622641734407
-13.619824892934023;243.68531752862236;7684.888016549566;1696.6438279721572
-13.4688465936452;242.33843286925784;7709.121859836491;1677.940458443651
-13.32036945848549;241.0063959234093;7733.222499428832;1659.5452250283174
-13.174338469045855;239.6889620765047;7757.191395636482;1641.4513868946317
-13.03070011307804;238.3858920651969;7781.029984843002;1623.652386734849
-12.889402335241599;237.09695183167275;7804.7396800261695;1606.1418447963015
-12.750394489721202;235.82191238270065;7828.321871264439;1588.9135531381182
-12.613627294633481;234.5605496532373;7851.777926229763;1571.96147010368
-12.47905278814647;233.31264437442266;7875.1091906672045;1555.279714999595
-12.346624286238546;232.0779819457988;7898.316988861784;1538.8625629724147
-12.216296342027105;230.85635231159608;7921.402624092943;1522.7044400747363
-12.088024706600708;229.64754984093602;7944.367379077037;1506.7999185127198
-11.961766291291374;228.4513732118069;7967.212516398218;1491.1437120674366
-11.837479131326873;227.2676252986742;7989.9392789280855;1475.7306716828166
-11.715122350805515;226.09611306359366;8012.548890234445;1460.5557812132952
-11.594656128938762;224.93664745069978;8035.042554979515;1445.614153324583
-11.476041667509381;223.78904328394884;8057.4214593079105;1430.9010255412893
-11.359241159495431;222.6531191679993;8079.68677122471;1416.4117564354085
-11.24421775881245;221.52869739211806;8101.839640963922;1402.1418219499603
-11.130935551128596;220.4156038370052;8123.881201347623;1388.086811852332
-11.019359525709431;219.31366788443424;8145.812568136066;1374.242426312112
-10.909455548250964;218.22272232960916;8167.634840369027;1360.6044725984484
-10.801190334661548;217.142603296143;8189.349100698641;1347.168861892175
-10.694531425754887;216.0731501535675;8210.956415713998;1333.931606208175
-10.589447162818129;215.01420543728568;8232.457836257727;1320.888815423637
-10.485906664020618;213.96561477088363;8253.854397734814;1308.0366944080622
-10.383879801630394;212.9272267907206;8275.147120413887;1295.3715402510559
-10.283337180006933;211.89889307271991;8296.33700972116;1282.8897395841138
-10.1842501143401;210.8804680612859;8317.425056527287;1270.5877659927721
-10.086590610106443;209.87180900027528;8338.412237427314;1258.462177515658
-9.990331343215335;208.87277586595374;8359.299515013909;1246.509614227113
-9.895445640818586;207.8832313018719;8380.087838144096;1234.7267959002163
-9.801907462758289;206.90304055559605;8400.778142199655;1223.1105197471607
-9.70969138362875;205.93207141723317;8421.371349341378;1211.6576582340692
-9.618772575429354;204.97019415969024;8441.868368757347;1200.3651569674605
-9.529126790786217;204.01728148061162;8462.270096905408;1189.2300326496888
-9.440730346721415;203.07320844593949;8482.57741775;1178.2493711007996
-9.353560108949415;202.13785243504455;8502.791202993505;1167.4203253443384
-9.267593476681245;201.2110930873764;8522.912312302242;1156.7401137547674
-9.182808367917708;200.29281225058463;8542.941593527301;1146.2060182642272
-9.099183205213714;199.38289393006326;8562.879882920308;1135.8153826264816
-9.01669690189658;198.4812242398736;8582.728005344296;1125.5656107359712
-8.935328848721777;197.58769135500143;8602.486774479796;1115.45416499998
-8.855058900950356;196.7021854649064;8622.156993026287;1105.4785647620122
-8.77586736583287;195.8245987283231;8641.739452899119;1095.6363847745363
-8.697734990485241;194.95482522927458;8661.234935422046;1085.9252537193427
-8.620642950142564;194.09276093426033;8680.644211515471;1076.3428527738267
-8.544572836777512;193.23830365058257;8699.96804188053;1066.8869142215642
-8.469506648070373;192.39135298577554;8719.207177179107;1057.5552201056366
-8.395426776718429;191.5518103081037;8738.362358209917;1048.3456009231927
-8.3223160000727;190.71957870809644;8757.434316080728;1039.2559343598225
-8.250157470090748;189.89456296108736;8776.423772376836;1030.2841440623536
-8.178934703594498;189.0766694907279;8795.33143932591;1021.4281984487418
-8.108631572822516;188.26580633344565;8814.158019959254;1012.6861095537847
-8.039232296266684;187.461883103819;8832.904208269636;1004.0559319094256
-7.970721429783463;186.66481096084064;8851.57068936572;995.5357614584676
-7.9030838579704;185.8745025750436;8870.158139623225;987.1237345005683
-7.836304785798856;185.09087209646373;8888.667226832871;978.818026669414
-7.770369730494314;184.3138351234143;8907.098610345212;970.6168519400328
-7.705264513655882;183.5433086720487;8925.452941212417;962.5184616652272
-7.640975253607003;182.779211146688;8943.730862327086;954.5211436401587
-7.577488357969643;182.02146231089102;8961.933008558175;946.6232211941463
-7.514790516454498;181.26998325924558;8980.0600068841;938.8230523087764
-7.452868693860101;180.52469638985957;8998.112476523085;931.1190287614564
-7.391710123273896;179.78552537753217;9016.091029060839;923.5095752935789
-7.331302299468695;179.0523951475853;9033.996268575598;915.9931488024864
-7.271632972488067;178.32523185033648;9051.828791760632;908.5682375564645
-7.212690141414543;177.60396283619502;9069.589188044252;901.2333604320155
-7.154462048314697;176.88851663136356;9087.27803970739;893.9870661726909
-7.0969371723553705;176.17882291412803;9104.895921998803;886.827932668791
-7.04010422408555;175.4748124917195;9122.443403247975;879.7545662572604
-6.983952139878567;174.77641727773164;9139.921044975748;872.7656010411363
-6.928470076529535;174.0835702700787;9157.329402002757;865.8596982279264
-6.873647406003028;173.39620552947838;9174.669022555705;859.0355454863173
-6.819473710326317;172.71425815844574;9191.94044837155;852.2918563206355
-6.765938776623492;172.0376642807834;9209.144214799628;845.627369462501
-6.713032592286107;171.36636102155478;9226.280850901783;839.0408482791386
-6.660745340276042;170.70028648752717;9243.350879550537;832.5310801978243
-6.609067394556449;170.03937974807153;9260.354817525344;826.0968761459679
-6.5579893156468385;169.38358081650685;9277.293175606994;819.7370700063459
-6.507501846298442;168.732830631877;9294.16645867018;813.4505180870196
-6.457595907286131;168.0870710411484;9310.975165774296;807.2360986054877
-6.408262593313359;167.44624478181706;9327.719790252479;801.0927111866341
-6.359493169026612;166.8102954649144;9344.40081979897;795.0192763740582
-6.311279065136074;166.1791675584008;9361.01873655481;789.0147351543728
-6.2636118746392775;165.55280637093688;9377.574017191904;783.0780484940834
-6.216483349144597;164.93115803602242;9394.067132995506;777.2081968886687
-6.169885395291616;164.31416949649326;9410.498549945156;771.4041799234948
-6.123810071265432;163.70178848936672;9426.868728794092;765.6650158462102
-6.078249583402111;163.0939635310265;9443.178125147195;759.9897411502801
-6.033196282882554;162.49064390273824;9459.42718953747;754.3774101693281
-5.9886426625121825;161.89177963648703;9475.616367501118;748.8270946819679
-5.944581353583875;161.29732150112864;9491.74609965123;743.3378835268129
-5.901005122821717;160.70722098884647;9507.816821750115;737.9088822273696
-5.857906869403203;160.12143030190614;9523.828964780307;732.5392126265197
-5.81527962205757;159.53990233970038;9539.782955014276;727.2280125303181
